 #energy          xx(cm^-1)       yy(cm^-1)       zz(cm^-1)       xy(cm^-1)       yz(cm^-1)       zx(cm^-1)
  0.00000000E+00  0.00000000E+00  0.00000000E+00  0.00000000E+00  0.00000000E+00  0.00000000E+00  0.00000000E+00
  0.82000000E-02  0.45166569E+04  0.45166798E+04  0.45166263E+04  0.21189178E+02  0.13140970E+02  0.15548606E+02
  0.16300000E-01  0.63486336E+04  0.63486659E+04  0.63485906E+04  0.30907595E+02  0.20233770E+02  0.20233770E+02
  0.24500000E-01  0.77914957E+04  0.77915353E+04  0.77914363E+04  0.35117587E+02  0.24831884E+02  0.24831884E+02
  0.32700000E-01  0.90062305E+04  0.90062915E+04  0.90061696E+04  0.40591674E+02  0.23435614E+02  0.33142963E+02
  0.40900000E-01  0.10075763E+05  0.10075806E+05  0.10075678E+05  0.50770626E+02  0.29312435E+02  0.29312435E+02
  0.49000000E-01  0.11019874E+05  0.11019930E+05  0.11019762E+05  0.49663767E+02  0.35117587E+02  0.35117587E+02
  0.57200000E-01  0.11910269E+05  0.11910339E+05  0.11910198E+05  0.57974847E+02  0.40994407E+02  0.40994407E+02
  0.65400000E-01  0.12738889E+05  0.12738889E+05  0.12738803E+05  0.66285926E+02  0.46871228E+02  0.46871228E+02
  0.73500000E-01  0.13498624E+05  0.13498727E+05  0.13498522E+05  0.52676380E+02  0.52676380E+02  0.52676380E+02
  0.81700000E-01  0.14235534E+05  0.14235655E+05  0.14235414E+05  0.58553201E+02  0.58553201E+02  0.58553201E+02
  0.89900000E-01  0.14936374E+05  0.14936513E+05  0.14936374E+05  0.64430021E+02  0.00000000E+00  0.64430021E+02
  0.98100000E-01  0.15606219E+05  0.15606219E+05  0.15606060E+05  0.70306842E+02  0.00000000E+00  0.70306842E+02
  0.10620000E+00  0.16233281E+05  0.16233459E+05  0.16233281E+05  0.76111994E+02  0.00000000E+00  0.76111994E+02
  0.11440000E+00  0.16852242E+05  0.16852242E+05  0.16852042E+05  0.81988815E+02  0.00000000E+00  0.00000000E+00
  0.12260000E+00  0.17449460E+05  0.17449682E+05  0.17449460E+05  0.87865635E+02  0.00000000E+00  0.00000000E+00
  0.13070000E+00  0.18013552E+05  0.18013796E+05  0.18013552E+05  0.93670787E+02  0.00000000E+00  0.00000000E+00
  0.13890000E+00  0.18574367E+05  0.18574367E+05  0.18574101E+05  0.99547608E+02  0.00000000E+00  0.00000000E+00
  0.14710000E+00  0.19119062E+05  0.19119062E+05  0.19118772E+05  0.10542443E+03  0.00000000E+00  0.00000000E+00
  0.15530000E+00  0.19649005E+05  0.19649005E+05  0.19648690E+05  0.11130125E+03  0.00000000E+00  0.00000000E+00
  0.16340000E+00  0.20152851E+05  0.20153192E+05  0.20152851E+05  0.11710640E+03  0.00000000E+00  0.00000000E+00
  0.17160000E+00  0.20657155E+05  0.20657521E+05  0.20657155E+05  0.12298322E+03  0.00000000E+00  0.00000000E+00
  0.17980000E+00  0.21149933E+05  0.21149933E+05  0.21149541E+05  0.12886004E+03  0.00000000E+00  0.00000000E+00
  0.18790000E+00  0.21620370E+05  0.21620370E+05  0.21619951E+05  0.13466519E+03  0.00000000E+00  0.00000000E+00
  0.19610000E+00  0.22092382E+05  0.22092382E+05  0.22091935E+05  0.14054202E+03  0.00000000E+00  0.00000000E+00
  0.20430000E+00  0.22554680E+05  0.22555155E+05  0.22554680E+05  0.14641884E+03  0.00000000E+00  0.00000000E+00
  0.21250000E+00  0.23008744E+05  0.23008744E+05  0.23008744E+05  0.15229566E+03  0.00000000E+00  0.00000000E+00
  0.22060000E+00  0.23443743E+05  0.23443743E+05  0.23443210E+05  0.00000000E+00  0.00000000E+00  0.00000000E+00
  0.22880000E+00  0.23881134E+05  0.23881697E+05  0.23881134E+05  0.00000000E+00  0.00000000E+00  0.00000000E+00
  0.23700000E+00  0.24311744E+05  0.24311744E+05  0.24311744E+05  0.00000000E+00  0.00000000E+00  0.00000000E+00
  0.24520000E+00  0.24735074E+05  0.24735698E+05  0.24735074E+05  0.00000000E+00  0.00000000E+00  0.00000000E+00
  0.25330000E+00  0.25142631E+05  0.25142631E+05  0.25141975E+05  0.00000000E+00  0.00000000E+00  0.00000000E+00
  0.26150000E+00  0.25552887E+05  0.25552887E+05  0.25552887E+05  0.00000000E+00  0.00000000E+00  0.00000000E+00
  0.26970000E+00  0.25957783E+05  0.25957783E+05  0.25957783E+05  0.00000000E+00  0.00000000E+00  0.00000000E+00
  0.27780000E+00  0.26347602E+05  0.26347602E+05  0.26347602E+05  0.00000000E+00  0.00000000E+00  0.00000000E+00
  0.28600000E+00  0.26741585E+05  0.26741585E+05  0.26741585E+05  0.00000000E+00  0.00000000E+00  0.00000000E+00
  0.29420000E+00  0.27129948E+05  0.27129948E+05  0.27129948E+05  0.00000000E+00  0.00000000E+00  0.00000000E+00
  0.30240000E+00  0.27513920E+05  0.27513920E+05  0.27513920E+05  0.00000000E+00  0.00000000E+00  0.00000000E+00
  0.31050000E+00  0.27883921E+05  0.27883921E+05  0.27883921E+05  0.00000000E+00  0.00000000E+00  0.00000000E+00
  0.31870000E+00  0.28258928E+05  0.28258928E+05  0.28258928E+05  0.00000000E+00  0.00000000E+00  0.00000000E+00
  0.32690000E+00  0.28628757E+05  0.28629716E+05  0.28628757E+05  0.00000000E+00  0.00000000E+00  0.00000000E+00
  0.33500000E+00  0.28987280E+05  0.28987280E+05  0.28986286E+05  0.00000000E+00  0.00000000E+00  0.00000000E+00
  0.34320000E+00  0.29349476E+05  0.29349476E+05  0.29349476E+05  0.00000000E+00  0.00000000E+00  0.00000000E+00
  0.35140000E+00  0.29707899E+05  0.29707899E+05  0.29707899E+05  0.00000000E+00  0.00000000E+00  0.00000000E+00
  0.35960000E+00  0.30062802E+05  0.30062802E+05  0.30062802E+05  0.00000000E+00  0.00000000E+00  0.00000000E+00
  0.36770000E+00  0.30406062E+05  0.30406062E+05  0.30406062E+05  0.00000000E+00  0.00000000E+00  0.00000000E+00
  0.37590000E+00  0.30754342E+05  0.30754342E+05  0.30754342E+05  0.00000000E+00  0.00000000E+00  0.00000000E+00
  0.38410000E+00  0.31099204E+05  0.31099204E+05  0.31099204E+05  0.00000000E+00  0.00000000E+00  0.00000000E+00
  0.39220000E+00  0.31433691E+05  0.31433691E+05  0.31433691E+05  0.00000000E+00  0.00000000E+00  0.00000000E+00
  0.40040000E+00  0.31772411E+05  0.31772411E+05  0.31772411E+05  0.00000000E+00  0.00000000E+00  0.00000000E+00
  0.40860000E+00  0.32108152E+05  0.32108152E+05  0.32108152E+05  0.00000000E+00  0.00000000E+00  0.00000000E+00
  0.41680000E+00  0.32441824E+05  0.32441824E+05  0.32441824E+05  0.00000000E+00  0.00000000E+00  0.00000000E+00
  0.42490000E+00  0.32765238E+05  0.32765238E+05  0.32765238E+05  0.00000000E+00  0.00000000E+00  0.00000000E+00
  0.43310000E+00  0.33093271E+05  0.33093271E+05  0.33093271E+05  0.00000000E+00  0.00000000E+00  0.00000000E+00
  0.44130000E+00  0.33418879E+05  0.33418879E+05  0.33418879E+05  0.00000000E+00  0.00000000E+00  0.00000000E+00
  0.44940000E+00  0.33733777E+05  0.33733777E+05  0.33733777E+05  0.00000000E+00  0.00000000E+00  0.00000000E+00
  0.45760000E+00  0.34055276E+05  0.34055276E+05  0.34055276E+05  0.00000000E+00  0.00000000E+00  0.00000000E+00
  0.46580000E+00  0.34373359E+05  0.34374980E+05  0.34373359E+05  0.00000000E+00  0.00000000E+00  0.00000000E+00
  0.47400000E+00  0.34690251E+05  0.34690251E+05  0.34690251E+05  0.00000000E+00  0.00000000E+00  0.00000000E+00
  0.48210000E+00  0.34997691E+05  0.34997691E+05  0.34997691E+05  0.00000000E+00  0.00000000E+00  0.00000000E+00
  0.49030000E+00  0.35310849E+05  0.35310849E+05  0.35310849E+05  0.00000000E+00  0.00000000E+00  0.00000000E+00
  0.49850000E+00  0.35621219E+05  0.35621219E+05  0.35621219E+05  0.00000000E+00  0.00000000E+00  0.00000000E+00
  0.50660000E+00  0.35922201E+05  0.35922201E+05  0.35922201E+05  0.00000000E+00  0.00000000E+00  0.00000000E+00
  0.51480000E+00  0.36230406E+05  0.36230406E+05  0.36228528E+05  0.00000000E+00  0.00000000E+00  0.00000000E+00
  0.52300000E+00  0.36535490E+05  0.36535490E+05  0.36535490E+05  0.00000000E+00  0.00000000E+00  0.00000000E+00
  0.53120000E+00  0.36837840E+05  0.36837840E+05  0.36837840E+05  0.00000000E+00  0.00000000E+00  0.00000000E+00
  0.53930000E+00  0.37132984E+05  0.37132984E+05  0.37132984E+05  0.00000000E+00  0.00000000E+00  0.00000000E+00
  0.54750000E+00  0.37433227E+05  0.37433227E+05  0.37433227E+05  0.00000000E+00  0.00000000E+00  0.00000000E+00
  0.55570000E+00  0.37732050E+05  0.37732050E+05  0.37732050E+05  0.00000000E+00  0.00000000E+00  0.00000000E+00
  0.56380000E+00  0.38023136E+05  0.38023136E+05  0.38023136E+05  0.00000000E+00  0.00000000E+00  0.00000000E+00
  0.57200000E+00  0.38318260E+05  0.38320453E+05  0.38318260E+05  0.00000000E+00  0.00000000E+00  0.00000000E+00
  0.58020000E+00  0.38613174E+05  0.38613174E+05  0.38613174E+05  0.00000000E+00  0.00000000E+00  0.00000000E+00
  0.58840000E+00  0.38906042E+05  0.38908328E+05  0.38906042E+05  0.00000000E+00  0.00000000E+00  0.00000000E+00
  0.59650000E+00  0.39192944E+05  0.39192944E+05  0.39192944E+05  0.00000000E+00  0.00000000E+00  0.00000000E+00
  0.60470000E+00  0.39482769E+05  0.39482769E+05  0.39482769E+05  0.00000000E+00  0.00000000E+00  0.00000000E+00
  0.61290000E+00  0.39773943E+05  0.39773943E+05  0.39771517E+05  0.00000000E+00  0.00000000E+00  0.00000000E+00
  0.62110000E+00  0.40062000E+05  0.40062000E+05  0.40062000E+05  0.00000000E+00  0.00000000E+00  0.00000000E+00
  0.62920000E+00  0.40343246E+05  0.40343246E+05  0.40340726E+05  0.00000000E+00  0.00000000E+00  0.00000000E+00
  0.63740000E+00  0.40628322E+05  0.40628322E+05  0.40628322E+05  0.00000000E+00  0.00000000E+00  0.00000000E+00
  0.64560000E+00  0.40913602E+05  0.40913602E+05  0.40913602E+05  0.00000000E+00  0.00000000E+00  0.00000000E+00
  0.65370000E+00  0.41193141E+05  0.41193141E+05  0.41190476E+05  0.00000000E+00  0.00000000E+00  0.00000000E+00
  0.66190000E+00  0.41474514E+05  0.41474514E+05  0.41474514E+05  0.00000000E+00  0.00000000E+00  0.00000000E+00
  0.67010000E+00  0.41756982E+05  0.41756982E+05  0.41756982E+05  0.00000000E+00  0.00000000E+00  0.00000000E+00
  0.67830000E+00  0.42038105E+05  0.42040916E+05  0.42038105E+05  0.00000000E+00  0.00000000E+00  0.00000000E+00
  0.68640000E+00  0.42314808E+05  0.42314808E+05  0.42314808E+05  0.00000000E+00  0.00000000E+00  0.00000000E+00
  0.69460000E+00  0.42594014E+05  0.42594014E+05  0.42594014E+05  0.00000000E+00  0.00000000E+00  0.00000000E+00
  0.70280000E+00  0.42872571E+05  0.42872571E+05  0.42872571E+05  0.00000000E+00  0.00000000E+00  0.00000000E+00
  0.71090000E+00  0.43144651E+05  0.43144651E+05  0.43144651E+05  0.00000000E+00  0.00000000E+00  0.00000000E+00
  0.71910000E+00  0.43422664E+05  0.43422664E+05  0.43422664E+05  0.00000000E+00  0.00000000E+00  0.00000000E+00
  0.72730000E+00  0.43700755E+05  0.43700755E+05  0.43700755E+05  0.00000000E+00  0.00000000E+00  0.00000000E+00
  0.73550000E+00  0.43976016E+05  0.43976016E+05  0.43976016E+05  0.00000000E+00  0.00000000E+00  0.00000000E+00
  0.74360000E+00  0.44245805E+05  0.44245805E+05  0.44245805E+05  0.00000000E+00  0.00000000E+00  0.00000000E+00
  0.75180000E+00  0.44522307E+05  0.44522307E+05  0.44522307E+05  0.00000000E+00  0.00000000E+00  0.00000000E+00
  0.76000000E+00  0.44796489E+05  0.44796489E+05  0.44796489E+05  0.00000000E+00  0.00000000E+00  0.00000000E+00
  0.76810000E+00  0.45065953E+05  0.45065953E+05  0.45065953E+05  0.00000000E+00  0.00000000E+00  0.00000000E+00
  0.77630000E+00  0.45339310E+05  0.45339310E+05  0.45339310E+05  0.00000000E+00  0.00000000E+00  0.00000000E+00
  0.78450000E+00  0.45610778E+05  0.45614243E+05  0.45610778E+05  0.00000000E+00  0.00000000E+00  0.00000000E+00
  0.79270000E+00  0.45883985E+05  0.45883985E+05  0.45883985E+05  0.00000000E+00  0.00000000E+00  0.00000000E+00
  0.80080000E+00  0.46153440E+05  0.46153440E+05  0.46149872E+05  0.00000000E+00  0.00000000E+00  0.00000000E+00
  0.80900000E+00  0.46423726E+05  0.46423726E+05  0.46423726E+05  0.00000000E+00  0.00000000E+00  0.00000000E+00
  0.81720000E+00  0.46696362E+05  0.46696362E+05  0.46696362E+05  0.00000000E+00  0.00000000E+00  0.00000000E+00
  0.82530000E+00  0.46962211E+05  0.46962211E+05  0.46962211E+05  0.00000000E+00  0.00000000E+00  0.00000000E+00
  0.83350000E+00  0.47232798E+05  0.47232798E+05  0.47232798E+05  0.00000000E+00  0.00000000E+00  0.00000000E+00
  0.84170000E+00  0.47502534E+05  0.47502534E+05  0.47502534E+05  0.00000000E+00  0.00000000E+00  0.00000000E+00
  0.84990000E+00  0.47775427E+05  0.47775427E+05  0.47775427E+05  0.00000000E+00  0.00000000E+00  0.00000000E+00
  0.85800000E+00  0.48038292E+05  0.48038292E+05  0.48038292E+05  0.00000000E+00  0.00000000E+00  0.00000000E+00
  0.86620000E+00  0.48310296E+05  0.48310296E+05  0.48310296E+05  0.00000000E+00  0.00000000E+00  0.00000000E+00
  0.87440000E+00  0.48578023E+05  0.48578023E+05  0.48578023E+05  0.00000000E+00  0.00000000E+00  0.00000000E+00
  0.88250000E+00  0.48844100E+05  0.48844100E+05  0.48844100E+05  0.00000000E+00  0.00000000E+00  0.00000000E+00
  0.89070000E+00  0.49111614E+05  0.49115762E+05  0.49111614E+05  0.00000000E+00  0.00000000E+00  0.00000000E+00
  0.89890000E+00  0.49383385E+05  0.49383385E+05  0.49383385E+05  0.00000000E+00  0.00000000E+00  0.00000000E+00
  0.90710000E+00  0.49651199E+05  0.49651199E+05  0.49651199E+05  0.00000000E+00  0.00000000E+00  0.00000000E+00
  0.91520000E+00  0.49918195E+05  0.49918195E+05  0.49918195E+05  0.00000000E+00  0.00000000E+00  0.00000000E+00
  0.92340000E+00  0.50186873E+05  0.50186873E+05  0.50186873E+05  0.00000000E+00  0.00000000E+00  0.00000000E+00
  0.93160000E+00  0.50456154E+05  0.50456154E+05  0.50456154E+05  0.00000000E+00  0.00000000E+00  0.00000000E+00
  0.93970000E+00  0.50720780E+05  0.50720780E+05  0.50720780E+05  0.00000000E+00  0.00000000E+00  0.00000000E+00
  0.94790000E+00  0.50991704E+05  0.50991704E+05  0.50991704E+05  0.00000000E+00  0.00000000E+00  0.00000000E+00
  0.95610000E+00  0.51259074E+05  0.51259074E+05  0.51259074E+05  0.00000000E+00  0.00000000E+00  0.00000000E+00
  0.96430000E+00  0.51527502E+05  0.51532136E+05  0.51527502E+05  0.00000000E+00  0.00000000E+00  0.00000000E+00
  0.97240000E+00  0.51796495E+05  0.51796495E+05  0.51791806E+05  0.00000000E+00  0.00000000E+00  0.00000000E+00
  0.98060000E+00  0.52062800E+05  0.52062800E+05  0.52062800E+05  0.00000000E+00  0.00000000E+00  0.00000000E+00
  0.98880000E+00  0.52335287E+05  0.52335287E+05  0.52335287E+05  0.00000000E+00  0.00000000E+00  0.00000000E+00
  0.99700000E+00  0.52604559E+05  0.52604559E+05  0.52604559E+05  0.00000000E+00  0.00000000E+00  0.00000000E+00
  0.10051000E+01  0.52870248E+05  0.52870248E+05  0.52870248E+05  0.00000000E+00  0.00000000E+00  0.00000000E+00
  0.10133000E+01  0.53143036E+05  0.53143036E+05  0.53143036E+05  0.00000000E+00  0.00000000E+00  0.00000000E+00
  0.10215000E+01  0.53412781E+05  0.53412781E+05  0.53412781E+05  0.00000000E+00  0.00000000E+00  0.00000000E+00
  0.10296000E+01  0.53679324E+05  0.53679324E+05  0.53679324E+05  0.00000000E+00  0.00000000E+00  0.00000000E+00
  0.10378000E+01  0.53953258E+05  0.53953258E+05  0.53953258E+05  0.00000000E+00  0.00000000E+00  0.00000000E+00
  0.10460000E+01  0.54224323E+05  0.54224323E+05  0.54224323E+05  0.00000000E+00  0.00000000E+00  0.00000000E+00
  0.10542000E+01  0.54497742E+05  0.54497742E+05  0.54497742E+05  0.00000000E+00  0.00000000E+00  0.00000000E+00
  0.10623000E+01  0.54763220E+05  0.54763220E+05  0.54763220E+05  0.00000000E+00  0.00000000E+00  0.00000000E+00
  0.10705000E+01  0.55036416E+05  0.55036416E+05  0.55036416E+05  0.00000000E+00  0.00000000E+00  0.00000000E+00
  0.10787000E+01  0.55312314E+05  0.55312314E+05  0.55312314E+05  0.00000000E+00  0.00000000E+00  0.00000000E+00
  0.10868000E+01  0.55580495E+05  0.55580495E+05  0.55580495E+05  0.00000000E+00  0.00000000E+00  0.00000000E+00
  0.10950000E+01  0.55856703E+05  0.55856703E+05  0.55856703E+05  0.00000000E+00  0.00000000E+00  0.00000000E+00
  0.11032000E+01  0.56130396E+05  0.56130396E+05  0.56130396E+05  0.00000000E+00  0.00000000E+00  0.00000000E+00
  0.11114000E+01  0.56407187E+05  0.56407187E+05  0.56407187E+05  0.00000000E+00  0.00000000E+00  0.00000000E+00
  0.11195000E+01  0.56676491E+05  0.56676491E+05  0.56676491E+05  0.00000000E+00  0.00000000E+00  0.00000000E+00
  0.11277000E+01  0.56954169E+05  0.56954169E+05  0.56954169E+05  0.00000000E+00  0.00000000E+00  0.00000000E+00
  0.11359000E+01  0.57235303E+05  0.57235303E+05  0.57235303E+05  0.00000000E+00  0.00000000E+00  0.00000000E+00
  0.11440000E+01  0.57509178E+05  0.57509178E+05  0.57509178E+05  0.00000000E+00  0.00000000E+00  0.00000000E+00
  0.11522000E+01  0.57785850E+05  0.57785850E+05  0.57785850E+05  0.00000000E+00  0.00000000E+00  0.00000000E+00
  0.11604000E+01  0.58066228E+05  0.58066228E+05  0.58066228E+05  0.00000000E+00  0.00000000E+00  0.00000000E+00
  0.11686000E+01  0.58344458E+05  0.58344458E+05  0.58344458E+05  0.00000000E+00  0.00000000E+00  0.00000000E+00
  0.11767000E+01  0.58621618E+05  0.58621618E+05  0.58621618E+05  0.00000000E+00  0.00000000E+00  0.00000000E+00
  0.11849000E+01  0.58901718E+05  0.58901718E+05  0.58901718E+05  0.00000000E+00  0.00000000E+00  0.00000000E+00
  0.11931000E+01  0.59185935E+05  0.59185935E+05  0.59185935E+05  0.00000000E+00  0.00000000E+00  0.00000000E+00
  0.12012000E+01  0.59463246E+05  0.59463246E+05  0.59463246E+05  0.00000000E+00  0.00000000E+00  0.00000000E+00
  0.12094000E+01  0.59749842E+05  0.59749842E+05  0.59749842E+05  0.00000000E+00  0.00000000E+00  0.00000000E+00
  0.12176000E+01  0.60034580E+05  0.60034580E+05  0.60034580E+05  0.00000000E+00  0.00000000E+00  0.00000000E+00
  0.12258000E+01  0.60323850E+05  0.60323850E+05  0.60323850E+05  0.00000000E+00  0.00000000E+00  0.00000000E+00
  0.12339000E+01  0.60606447E+05  0.60606447E+05  0.60606447E+05  0.00000000E+00  0.00000000E+00  0.00000000E+00
  0.12421000E+01  0.60892200E+05  0.60892200E+05  0.60892200E+05  0.00000000E+00  0.00000000E+00  0.00000000E+00
  0.12503000E+01  0.61182744E+05  0.61182744E+05  0.61182744E+05  0.00000000E+00  0.00000000E+00  0.00000000E+00
  0.12584000E+01  0.61466736E+05  0.61466736E+05  0.61466736E+05  0.00000000E+00  0.00000000E+00  0.00000000E+00
  0.12666000E+01  0.61760621E+05  0.61760621E+05  0.61760621E+05  0.00000000E+00  0.00000000E+00  0.00000000E+00
  0.12748000E+01  0.62052940E+05  0.62052940E+05  0.62052940E+05  0.00000000E+00  0.00000000E+00  0.00000000E+00
  0.12830000E+01  0.62343688E+05  0.62343688E+05  0.62343688E+05  0.00000000E+00  0.00000000E+00  0.00000000E+00
  0.12911000E+01  0.62634845E+05  0.62634845E+05  0.62634845E+05  0.00000000E+00  0.00000000E+00  0.00000000E+00
  0.12993000E+01  0.62929391E+05  0.62929391E+05  0.62929391E+05  0.00000000E+00  0.00000000E+00  0.00000000E+00
  0.13075000E+01  0.63229407E+05  0.63229407E+05  0.63229407E+05  0.00000000E+00  0.00000000E+00  0.00000000E+00
  0.13156000E+01  0.63523225E+05  0.63523225E+05  0.63523225E+05  0.00000000E+00  0.00000000E+00  0.00000000E+00
  0.13238000E+01  0.63820507E+05  0.63820507E+05  0.63820507E+05  0.00000000E+00  0.00000000E+00  0.00000000E+00
  0.13320000E+01  0.64123520E+05  0.64123520E+05  0.64123520E+05  0.00000000E+00  0.00000000E+00  0.00000000E+00
  0.13402000E+01  0.64425262E+05  0.64425262E+05  0.64425262E+05  0.00000000E+00  0.00000000E+00  0.00000000E+00
  0.13483000E+01  0.64720931E+05  0.64728144E+05  0.64720931E+05  0.00000000E+00  0.00000000E+00  0.00000000E+00
  0.13565000E+01  0.65027397E+05  0.65027397E+05  0.65027397E+05  0.00000000E+00  0.00000000E+00  0.00000000E+00
  0.13647000E+01  0.65340013E+05  0.65340013E+05  0.65332693E+05  0.00000000E+00  0.00000000E+00  0.00000000E+00
  0.13729000E+01  0.65644189E+05  0.65644189E+05  0.65644189E+05  0.00000000E+00  0.00000000E+00  0.00000000E+00
  0.13810000E+01  0.65949840E+05  0.65949840E+05  0.65949840E+05  0.00000000E+00  0.00000000E+00  0.00000000E+00
  0.13892000E+01  0.66259202E+05  0.66259202E+05  0.66259202E+05  0.00000000E+00  0.00000000E+00  0.00000000E+00
  0.13974000E+01  0.66575023E+05  0.66575023E+05  0.66575023E+05  0.00000000E+00  0.00000000E+00  0.00000000E+00
  0.14055000E+01  0.66885116E+05  0.66885116E+05  0.66885116E+05  0.00000000E+00  0.00000000E+00  0.00000000E+00
  0.14137000E+01  0.67199002E+05  0.67199002E+05  0.67199002E+05  0.00000000E+00  0.00000000E+00  0.00000000E+00
  0.14219000E+01  0.67519606E+05  0.67519606E+05  0.67519606E+05  0.00000000E+00  0.00000000E+00  0.00000000E+00
  0.14301000E+01  0.67839340E+05  0.67839340E+05  0.67839340E+05  0.00000000E+00  0.00000000E+00  0.00000000E+00
